Temperature2,Execution1
Time(s),Temperature2(C)
0.0000,25.34
0.5000,25.34
1.0000,25.35
1.5000,25.36
2.0000,25.37
2.5000,25.39
3.0000,25.40
3.5000,25.43
4.0000,25.45
4.5000,25.45
5.0000,25.49
5.5000,25.53
6.0000,25.56
6.5000,25.60
7.0000,25.65
7.5000,25.71
8.0000,25.77
8.5000,25.83
9.0000,25.88
9.5000,25.94
10.0000,26.00
10.5000,26.06
11.0000,26.11
11.5000,26.19
12.0000,26.25
12.5000,26.32
13.0000,26.40
13.5000,26.48
14.0000,26.50
14.5000,26.61
15.0000,26.68
15.5000,26.78
16.0000,26.87
16.5000,26.96
17.0000,27.07
17.5000,27.17
18.0000,27.26
18.5000,27.35
19.0000,27.47
19.5000,27.56
20.0000,27.63
20.5000,27.69
21.0000,27.74
21.5000,27.79
22.0000,27.81
22.5000,27.84
23.0000,27.86
23.5000,27.88
24.0000,27.87
24.5000,27.88
25.0000,27.88
25.5000,27.89
26.0000,27.85
26.5000,27.84
27.0000,27.81
27.5000,27.78
28.0000,27.74
28.5000,27.70
29.0000,27.65
29.5000,27.60
30.0000,27.56
30.5000,27.50
31.0000,27.45
31.5000,27.41
32.0000,27.37
32.5000,27.32
33.0000,27.25
33.5000,27.21
34.0000,27.15
34.5000,27.12
35.0000,27.10
35.5000,27.07
36.0000,27.06
36.5000,27.04
37.0000,27.02
37.5000,27.01
38.0000,27.00
38.5000,27.01
39.0000,27.01
39.5000,27.03
40.0000,27.05
40.5000,27.06
41.0000,27.11
41.5000,27.17
42.0000,27.24
42.5000,27.30
43.0000,27.36
43.5000,27.42
44.0000,27.48
44.5000,27.55
45.0000,27.61
45.5000,27.68
46.0000,27.74
46.5000,27.81
47.0000,27.89
47.5000,27.97
48.0000,28.08
48.5000,28.14
49.0000,28.20
49.5000,28.23
50.0000,28.28
50.5000,28.32
51.0000,28.37
51.5000,28.39
52.0000,28.44
52.5000,28.43
53.0000,28.43
53.5000,28.46
54.0000,28.46
54.5000,28.43
55.0000,28.43
55.5000,28.40
56.0000,28.38
56.5000,28.35
57.0000,28.31
57.5000,28.28
58.0000,28.25
58.5000,28.20
59.0000,28.15
59.5000,28.12
60.0000,28.08
60.5000,28.02
61.0000,27.97
61.5000,27.90
62.0000,27.86
62.5000,27.82
63.0000,27.76
63.5000,27.72
64.0000,27.65
64.5000,27.58
65.0000,27.54
65.5000,27.52
66.0000,27.48
66.5000,27.45
67.0000,27.43
67.5000,27.41
68.0000,27.39
68.5000,27.38
69.0000,27.38
69.5000,27.39
70.0000,27.41
70.5000,27.42
71.0000,27.46
71.5000,27.49
72.0000,27.52
72.5000,27.56
73.0000,27.62
73.5000,27.67
74.0000,27.72
74.5000,27.77
75.0000,27.83
75.5000,27.88
76.0000,27.95
76.5000,28.00
77.0000,28.06
77.5000,28.11
78.0000,28.20
78.5000,28.25
79.0000,28.30
79.5000,28.35
80.0000,28.41
80.5000,28.44
81.0000,28.48
81.5000,28.51
82.0000,28.52
82.5000,28.53
83.0000,28.55
83.5000,28.55
84.0000,28.52
84.5000,28.51
85.0000,28.50
85.5000,28.48
86.0000,28.46
86.5000,28.41
87.0000,28.38
87.5000,28.35
88.0000,28.32
88.5000,28.27
89.0000,28.21
89.5000,28.16
90.0000,28.11
90.5000,28.04
91.0000,27.99
91.5000,27.92
92.0000,27.85
92.5000,27.80
93.0000,27.74
93.5000,27.71
94.0000,27.67
94.5000,27.62
95.0000,27.59
95.5000,27.55
96.0000,27.52
96.5000,27.49
97.0000,27.48
97.5000,27.46
98.0000,27.46
98.5000,27.47
99.0000,27.47
99.5000,27.49
100.0000,27.51
100.5000,27.54
101.0000,27.57
101.5000,27.61
102.0000,27.63
102.5000,27.70
103.0000,27.77
103.5000,27.81
104.0000,27.89
104.5000,27.95
105.0000,28.03
105.5000,28.12
106.0000,28.24
106.5000,28.34
107.0000,28.41
107.5000,28.48
108.0000,28.51
108.5000,28.56
109.0000,28.61
109.5000,28.66
110.0000,28.70
110.5000,28.76
111.0000,28.79
111.5000,28.81
112.0000,28.84
112.5000,28.86
113.0000,28.84
113.5000,28.84
114.0000,28.84
114.5000,28.82
115.0000,28.78
115.5000,28.76
116.0000,28.74
116.5000,28.70
117.0000,28.65
117.5000,28.60
118.0000,28.57
118.5000,28.51
119.0000,28.45
119.5000,28.39
120.0000,28.33
120.5000,28.26
121.0000,28.20
121.5000,28.13
122.0000,28.07
122.5000,28.00
123.0000,27.94
123.5000,27.88
124.0000,27.84
124.5000,27.78
125.0000,27.73
125.5000,27.69
126.0000,27.65
126.5000,27.62
127.0000,27.60
127.5000,27.58
128.0000,27.57
128.5000,27.57
129.0000,27.56
129.5000,27.56
130.0000,27.58
130.5000,27.61
131.0000,27.63
131.5000,27.70
132.0000,27.73
132.5000,27.78
133.0000,27.84
133.5000,27.91
134.0000,27.95
134.5000,28.02
135.0000,28.08
135.5000,28.15
136.0000,28.19
136.5000,28.26
137.0000,28.34
137.5000,28.41
138.0000,28.49
138.5000,28.55
139.0000,28.60
139.5000,28.65
140.0000,28.68
140.5000,28.72
141.0000,28.74
141.5000,28.78
142.0000,28.80
142.5000,28.83
143.0000,28.84
143.5000,28.84
144.0000,28.84
144.5000,28.83
145.0000,28.81
145.5000,28.79
146.0000,28.77
146.5000,28.73
147.0000,28.69
147.5000,28.65
148.0000,28.60
148.5000,28.56
149.0000,28.51
149.5000,28.46
150.0000,28.40
150.5000,28.34
151.0000,28.28
151.5000,28.22
152.0000,28.15
152.5000,28.12
153.0000,28.06
153.5000,28.03
154.0000,28.00
154.5000,27.96
155.0000,27.93
155.5000,27.89
156.0000,27.87
156.5000,27.85
157.0000,27.85
157.5000,27.84
158.0000,27.84
158.5000,27.82
159.0000,27.84
159.5000,27.88
160.0000,27.90
160.5000,27.99
161.0000,28.07
161.5000,28.11
162.0000,28.13
162.5000,28.19
163.0000,28.26
163.5000,28.31
164.0000,28.39
164.5000,28.47
165.0000,28.55
165.5000,28.65
166.0000,28.71
166.5000,28.76
167.0000,28.81
167.5000,28.84
168.0000,28.91
168.5000,28.97
169.0000,29.04
169.5000,29.09
170.0000,29.14
170.5000,29.20
171.0000,29.21
171.5000,29.24
172.0000,29.26
172.5000,29.27
173.0000,29.24
173.5000,29.23
174.0000,29.24
174.5000,29.24
175.0000,29.20
175.5000,29.20
176.0000,29.17
176.5000,29.13
177.0000,29.08
177.5000,29.05
178.0000,29.01
178.5000,28.96
179.0000,28.93
179.5000,28.86
180.0000,28.81
180.5000,28.74
181.0000,28.69
181.5000,28.62
182.0000,28.55
182.5000,28.50
183.0000,28.43
183.5000,28.40
184.0000,28.34
184.5000,28.30
185.0000,28.26
185.5000,28.21
186.0000,28.15
186.5000,28.11
187.0000,28.09
187.5000,28.09
188.0000,28.08
188.5000,28.09
189.0000,28.09
189.5000,28.09
190.0000,28.08
190.5000,28.11
191.0000,28.13
191.5000,28.17
192.0000,28.19
192.5000,28.20
193.0000,28.25
193.5000,28.29
194.0000,28.34
194.5000,28.39
195.0000,28.45
195.5000,28.52
196.0000,28.60
196.5000,28.65
197.0000,28.75
197.5000,28.80
198.0000,28.86
198.5000,28.93
199.0000,28.98
199.5000,29.02
200.0000,29.06
200.5000,29.10
201.0000,29.12
201.5000,29.15
202.0000,29.15
202.5000,29.17
203.0000,29.17
203.5000,29.17
204.0000,29.16
204.5000,29.15
205.0000,29.13
205.5000,29.10
206.0000,29.07
206.5000,29.03
207.0000,28.99
207.5000,28.96
208.0000,28.91
208.5000,28.86
209.0000,28.80
209.5000,28.75
210.0000,28.68
210.5000,28.63
211.0000,28.57
211.5000,28.51
212.0000,28.45
212.5000,28.38
213.0000,28.32
213.5000,28.28
214.0000,28.24
214.5000,28.20
215.0000,28.15
215.5000,28.11
216.0000,28.09
216.5000,28.07
217.0000,28.05
217.5000,28.04
218.0000,28.03
218.5000,28.03
219.0000,28.03
219.5000,28.04
220.0000,28.04
220.5000,28.07
221.0000,28.09
221.5000,28.12
222.0000,28.15
222.5000,28.19
223.0000,28.23
223.5000,28.28
224.0000,28.33
224.5000,28.39
225.0000,28.45
225.5000,28.52
226.0000,28.58
226.5000,28.64
227.0000,28.70
227.5000,28.77
228.0000,28.82
228.5000,28.90
229.0000,28.95
229.5000,29.00
230.0000,29.04
230.5000,29.08
231.0000,29.11
231.5000,29.13
232.0000,29.15
232.5000,29.17
233.0000,29.18
233.5000,29.18
234.0000,29.18
234.5000,29.19
235.0000,29.17
235.5000,29.16
236.0000,29.12
236.5000,29.08
237.0000,29.05
237.5000,29.01
238.0000,28.96
238.5000,28.92
239.0000,28.87
239.5000,28.81
240.0000,28.74
240.5000,28.68
241.0000,28.62
241.5000,28.55
242.0000,28.50
242.5000,28.44
243.0000,28.38
243.5000,28.33
244.0000,28.27
244.5000,28.22
245.0000,28.19
245.5000,28.17
246.0000,28.16
246.5000,28.12
247.0000,28.13
247.5000,28.14
248.0000,28.13
248.5000,28.13
249.0000,28.13
249.5000,28.15
250.0000,28.16
250.5000,28.20
251.0000,28.24
251.5000,28.27
252.0000,28.29
252.5000,28.32
253.0000,28.38
253.5000,28.44
254.0000,28.48
254.5000,28.53
255.0000,28.60
255.5000,28.67
256.0000,28.75
256.5000,28.81
257.0000,28.90
257.5000,28.97
258.0000,29.02
258.5000,29.07
259.0000,29.13
259.5000,29.17
260.0000,29.22
260.5000,29.25
261.0000,29.25
261.5000,29.30
262.0000,29.33
262.5000,29.35
263.0000,29.37
263.5000,29.38
264.0000,29.32
264.5000,29.36
265.0000,29.34
265.5000,29.32
266.0000,29.31
266.5000,29.31
267.0000,29.26
267.5000,29.21
268.0000,29.17
268.5000,29.13
269.0000,29.10
269.5000,29.05
270.0000,28.98
270.5000,28.95
271.0000,28.88
271.5000,28.82
272.0000,28.76
272.5000,28.72
273.0000,28.68
273.5000,28.62
274.0000,28.56
274.5000,28.52
275.0000,28.49
275.5000,28.45
276.0000,28.41
276.5000,28.37
277.0000,28.35
277.5000,28.35
278.0000,28.34
278.5000,28.34
279.0000,28.34
279.5000,28.36
280.0000,28.40
280.5000,28.40
281.0000,28.41
281.5000,28.46
282.0000,28.48
282.5000,28.52
283.0000,28.58
283.5000,28.66
284.0000,28.72
284.5000,28.78
285.0000,28.84
285.5000,28.88
286.0000,28.93
286.5000,28.99
287.0000,29.08
287.5000,29.16
288.0000,29.22
288.5000,29.28
289.0000,29.34
289.5000,29.38
290.0000,29.41
290.5000,29.45
291.0000,29.48
291.5000,29.50
292.0000,29.51
292.5000,29.51
293.0000,29.53
293.5000,29.53
294.0000,29.53
294.5000,29.49
295.0000,29.47
295.5000,29.45
296.0000,29.42
296.5000,29.39
297.0000,29.36
297.5000,29.29
298.0000,29.24
298.5000,29.21
299.0000,29.14
299.5000,29.09
300.0000,29.03
300.5000,28.97
301.0000,28.93
301.5000,28.89
302.0000,28.82
302.5000,28.74
303.0000,28.71
303.5000,28.65
304.0000,28.60
304.5000,28.58
305.0000,28.53
305.5000,28.49
306.0000,28.48
306.5000,28.48
307.0000,28.48
307.5000,28.48
308.0000,28.46
308.5000,28.46
309.0000,28.46
309.5000,28.47
310.0000,28.48
310.5000,28.51
311.0000,28.53
311.5000,28.52
312.0000,28.57
312.5000,28.62
313.0000,28.66
313.5000,28.71
314.0000,28.77
314.5000,28.83
315.0000,28.87
315.5000,28.93
316.0000,29.00
316.5000,29.05
317.0000,29.11
317.5000,29.17
318.0000,29.23
318.5000,29.29
319.0000,29.32
319.5000,29.37
320.0000,29.41
320.5000,29.45
321.0000,29.49
321.5000,29.51
322.0000,29.54
322.5000,29.54
323.0000,29.55
323.5000,29.52
324.0000,29.52
324.5000,29.51
325.0000,29.49
325.5000,29.46
326.0000,29.43
326.5000,29.41
327.0000,29.36
327.5000,29.32
328.0000,29.28
328.5000,29.22
329.0000,29.17
329.5000,29.10
330.0000,29.05
330.5000,29.00
331.0000,28.93
331.5000,28.87
332.0000,28.80
332.5000,28.74
333.0000,28.69
333.5000,28.64
334.0000,28.59
334.5000,28.55
335.0000,28.51
335.5000,28.49
336.0000,28.44
336.5000,28.42
337.0000,28.41
337.5000,28.40
338.0000,28.40
338.5000,28.40
339.0000,28.41
339.5000,28.42
340.0000,28.41
340.5000,28.44
341.0000,28.48
341.5000,28.51
342.0000,28.56
342.5000,28.61
343.0000,28.67
343.5000,28.72
344.0000,28.78
344.5000,28.85
345.0000,28.90
345.5000,28.96
346.0000,29.02
346.5000,29.14
347.0000,29.20
347.5000,29.26
348.0000,29.33
348.5000,29.37
349.0000,29.43
349.5000,29.48
350.0000,29.53
350.5000,29.57
351.0000,29.61
351.5000,29.64
352.0000,29.66
352.5000,29.67
353.0000,29.68
353.5000,29.68
354.0000,29.68
354.5000,29.66
355.0000,29.65
355.5000,29.63
356.0000,29.60
356.5000,29.56
357.0000,29.52
357.5000,29.46
358.0000,29.38
358.5000,29.36
359.0000,29.31
359.5000,29.26
360.0000,29.20
360.5000,29.14
361.0000,29.08
361.5000,29.03
362.0000,28.96
362.5000,28.91
363.0000,28.85
363.5000,28.80
364.0000,28.76
364.5000,28.71
365.0000,28.67
365.5000,28.62
366.0000,28.60
366.5000,28.57
367.0000,28.56
367.5000,28.55
368.0000,28.54
368.5000,28.54
369.0000,28.55
369.5000,28.56
370.0000,28.53
370.5000,28.54
371.0000,28.56
371.5000,28.59
372.0000,28.64
372.5000,28.68
373.0000,28.73
373.5000,28.79
374.0000,28.83
374.5000,28.89
375.0000,28.96
375.5000,29.02
376.0000,29.10
376.5000,29.20
377.0000,29.29
377.5000,29.37
378.0000,29.44
378.5000,29.50
379.0000,29.56
379.5000,29.61
380.0000,29.65
380.5000,29.64
381.0000,29.73
381.5000,29.75
382.0000,29.77
382.5000,29.80
383.0000,29.82
383.5000,29.83
384.0000,29.81
384.5000,29.82
385.0000,29.83
385.5000,29.81
386.0000,29.77
386.5000,29.73
387.0000,29.71
387.5000,29.68
388.0000,29.62
388.5000,29.59
389.0000,29.55
389.5000,29.50
390.0000,29.45
390.5000,29.38
391.0000,29.33
391.5000,29.25
392.0000,29.19
392.5000,29.14
393.0000,29.07
393.5000,29.04
394.0000,28.98
394.5000,28.94
395.0000,28.91
395.5000,28.87
396.0000,28.84
396.5000,28.82
397.0000,28.81
397.5000,28.80
398.0000,28.79
398.5000,28.78
399.0000,28.79
399.5000,28.80
400.0000,28.79
400.5000,28.80
401.0000,28.84
401.5000,28.86
402.0000,28.89
402.5000,28.93
403.0000,28.96
403.5000,29.00
404.0000,29.04
404.5000,29.12
405.0000,29.19
405.5000,29.26
406.0000,29.34
406.5000,29.41
407.0000,29.46
407.5000,29.51
408.0000,29.57
408.5000,29.64
409.0000,29.69
409.5000,29.75
410.0000,29.80
410.5000,29.84
411.0000,29.86
411.5000,29.87
412.0000,29.89
412.5000,29.90
413.0000,29.91
413.5000,29.92
414.0000,29.92
414.5000,29.91
415.0000,29.90
415.5000,29.88
416.0000,29.82
416.5000,29.77
417.0000,29.74
417.5000,29.70
418.0000,29.65
418.5000,29.59
419.0000,29.54
419.5000,29.47
420.0000,29.42
420.5000,29.36
421.0000,29.30
421.5000,29.24
422.0000,29.20
422.5000,29.15
423.0000,29.10
423.5000,29.05
424.0000,29.00
424.5000,28.95
425.0000,28.90
425.5000,28.86
426.0000,28.83
426.5000,28.80
427.0000,28.79
427.5000,28.78
428.0000,28.76
428.5000,28.75
429.0000,28.76
429.5000,28.76
430.0000,28.78
430.5000,28.80
431.0000,28.83
431.5000,28.86
432.0000,28.89
432.5000,28.91
433.0000,28.95
433.5000,29.01
434.0000,29.07
434.5000,29.12
435.0000,29.18
435.5000,29.25
436.0000,29.31
436.5000,29.38
437.0000,29.39
437.5000,29.45
438.0000,29.51
438.5000,29.56
439.0000,29.61
439.5000,29.67
440.0000,29.71
440.5000,29.74
441.0000,29.77
441.5000,29.79
442.0000,29.80
442.5000,29.82
443.0000,29.82
443.5000,29.84
444.0000,29.91
444.5000,29.92
445.0000,29.89
445.5000,29.88
446.0000,29.87
446.5000,29.86
447.0000,29.84
447.5000,29.80
448.0000,29.77
448.5000,29.73
449.0000,29.67
449.5000,29.61
450.0000,29.57
450.5000,29.51
451.0000,29.47
451.5000,29.42
452.0000,29.36
452.5000,29.29
453.0000,29.21
453.5000,29.17
454.0000,29.11
454.5000,29.07
455.0000,29.04
455.5000,29.00
456.0000,28.97
456.5000,28.95
457.0000,28.95
457.5000,28.93
458.0000,28.91
458.5000,28.89
459.0000,28.88
459.5000,28.89
460.0000,28.90
460.5000,28.91
461.0000,28.93
461.5000,28.96
462.0000,28.99
462.5000,29.04
463.0000,29.07
463.5000,29.11
464.0000,29.16
464.5000,29.23
465.0000,29.29
465.5000,29.35
466.0000,29.40
466.5000,29.46
467.0000,29.53
467.5000,29.59
468.0000,29.65
468.5000,29.71
469.0000,29.76
469.5000,29.81
470.0000,29.83
470.5000,29.86
471.0000,29.90
471.5000,29.93
472.0000,29.96
472.5000,29.98
473.0000,30.01
473.5000,30.01
474.0000,30.01
474.5000,30.00
475.0000,30.00
475.5000,29.98
476.0000,29.96
476.5000,29.95
477.0000,29.92
477.5000,29.88
478.0000,29.82
478.5000,29.78
479.0000,29.74
479.5000,29.71
480.0000,29.65
480.5000,29.59
481.0000,29.54
481.5000,29.47
482.0000,29.42
482.5000,29.36
483.0000,29.32
483.5000,29.26
484.0000,29.21
484.5000,29.16
485.0000,29.12
485.5000,29.07
486.0000,29.04
486.5000,29.00
487.0000,28.94
487.5000,28.90
488.0000,28.88
488.5000,28.87
489.0000,28.87
489.5000,28.88
490.0000,28.94
490.5000,28.95
491.0000,28.97
491.5000,28.95
492.0000,28.99
492.5000,29.04
493.0000,29.09
493.5000,29.11
494.0000,29.21
494.5000,29.26
495.0000,29.28
495.5000,29.39
496.0000,29.47
496.5000,29.54
497.0000,29.60
497.5000,29.65
498.0000,29.74
498.5000,29.82
499.0000,29.88
499.5000,29.94
500.0000,29.99
500.5000,30.04
501.0000,30.07
501.5000,30.10
502.0000,30.12
502.5000,30.15
503.0000,30.17
503.5000,30.18
504.0000,30.19
504.5000,30.18
505.0000,30.14
505.5000,30.12
506.0000,30.10
506.5000,30.06
507.0000,30.03
507.5000,29.99
508.0000,29.95
508.5000,29.89
509.0000,29.82
509.5000,29.75
510.0000,29.68
510.5000,29.60
511.0000,29.54
511.5000,29.48
512.0000,29.42
512.5000,29.36
513.0000,29.30
513.5000,29.25
514.0000,29.19
514.5000,29.14
515.0000,29.10
515.5000,29.06
516.0000,29.03
516.5000,29.01
517.0000,28.99
517.5000,28.98
518.0000,28.97
518.5000,28.96
519.0000,28.97
519.5000,28.95
520.0000,28.97
520.5000,28.99
521.0000,29.03
521.5000,29.07
522.0000,29.12
522.5000,29.17
523.0000,29.22
523.5000,29.29
524.0000,29.35
524.5000,29.41
525.0000,29.47
525.5000,29.55
526.0000,29.63
526.5000,29.69
527.0000,29.77
527.5000,29.82
528.0000,29.89
528.5000,29.96
529.0000,29.99
529.5000,30.04
530.0000,30.07
530.5000,30.11
531.0000,30.15
531.5000,30.19
532.0000,30.21
532.5000,30.22
533.0000,30.24
533.5000,30.24
534.0000,30.22
534.5000,30.21
535.0000,30.20
535.5000,30.19
536.0000,30.17
536.5000,30.15
537.0000,30.12
537.5000,30.08
538.0000,30.03
538.5000,29.99
539.0000,29.93
539.5000,29.88
540.0000,29.82
540.5000,29.76
541.0000,29.72
541.5000,29.67
542.0000,29.61
542.5000,29.58
543.0000,29.52
543.5000,29.46
544.0000,29.42
544.5000,29.38
545.0000,29.34
545.5000,29.29
546.0000,29.27
546.5000,29.24
547.0000,29.25
547.5000,29.25
548.0000,29.24
548.5000,29.23
549.0000,29.23
549.5000,29.23
550.0000,29.21
550.5000,29.24
551.0000,29.27
551.5000,29.29
552.0000,29.31
552.5000,29.35
553.0000,29.39
553.5000,29.43
554.0000,29.48
554.5000,29.54
555.0000,29.58
555.5000,29.63
556.0000,29.69
556.5000,29.76
557.0000,29.82
557.5000,29.89
558.0000,29.94
558.5000,29.99
559.0000,30.04
